509
512
512
511
505
499
493
490
488
486
485
485
485
484
484
484
485
485
484
478
461
442
434
453
518
534
535
534
535
534
533
532
532
531
530
530
530
529
529
529
529
529
528
527
523
522
521
523
524
523
520
515
506
496
486
475
468
463
460
457
454
453
451
448
447
445
443
438
422
400
386
396
450
564
707
762
670
534
450
423
423
429
430
429
428
428
428
429
430
432
434
435
437
439
440
441
443
446
449
452
453
457
458
460
463
466
466
467
469
473
476
478
481
484
488
493
497
498
499
501
503
505
508
508
507
504
500
494
487
481
476
473
471
468
468
468
468
469
469
468
467
468
470
473
475
477
477
477
477
479
482
484
487
488
488
488
490
492
493
492
492
493
492
492
492
493
493
494
496
496
494
493
494
493
494
493
493
495
494
491
489
492
493
493
491
489
491
493
493
493
492
492
493
493
492
495
498
502
503
503
504
504
501
504
508
511
512
513
513
512
513
515
518
520
522
520
522
525
529
539
547
551
551
547
540
535
530
528
526
526
528
532
532
531
532
530
529
529
531
524
502
484
487
527
620
757
839
780
660
575
534
522
527
535
537
537
538
537
540
541
540
537
537
541
546
549
550
548
548
551
551
552
552
548
549
552
555
553
554
556
563
565
566
570
574
579
582
582
583
585
585
584
586
589
590
591
585
573
565
558
553
549
545
540
533
531
533
534
533
533
532
530
532
534
533
533
537
539
537
536
536
535
535
537
536
536
533
531
532
532
535
536
535
535
537
538
537
534
534
535
534
535
535
536
536
532
528
530
532
530
527
527
527
527
529
530
528
526
525
527
527
527
528
527
524
522
526
530
533
533
532
542
551
553
554
553
551
545
537
528
525
521
520
517
518
520
519
518
518
519
518
516
510
491
473
470
498
572
698
803
789
669
564
515
500
500
507
507
503
502
502
505
502
500
501
503
506
505
505
506
507
506
504
507
511
513
514
516
515
512
514
518
519
522
523
523
525
525
528
533
533
534
537
538
539
539
539
538
535
530
524
518
511
503
497
493
491
488
484
485
486
485
485
487
489
489
488
489
491
493
492
490
491
491
488
486
487
489
491
492
491
491
488
487
489
490
490
491
493
494
494
493
493
492
492
491
492
493
492
492
492
494
496
496
496
495
493
494
496
496
495
494
494
491
492
491
490
490
492
491
489
487
488
490
492
492
490
490
493
497
500
502
505
510
517
523
524
526
522
516
511
503
498
496
493
490
489
488
487
487
487
487
486
488
481
461
443
435
455
518
641
774
798
692
569
497
471
470
475
479
477
472
472
473
473
472
473
475
476
476
476
476
478
480
481
481
482
484
484
485
486
488
491
494
496
498
500
503
506
510
514
519
522
523
525
527
530
532
533
534
536
534
529
522
515
508
502
499
495
492
489
486
485
486
487
487
485
486
487
488
490
492
495
496
495
494
496
497
496
496
496
496
495
494
493
494
496
495
494
495
494
493
493
494
494
492
492
491
491
490
491
492
493
492
494
497
496
493
492
492
495
496
495
495
493
491
491
492
491
490
488
489
489
489
488
487
487
488
493
496
497
497
499
509
516
520
520
516
511
505
500
493
489
488
488
485
484
487
489
489
487
487
488
488
475
454
438
446
494
599
740
806
727
603
518
480
471
475
480
481
480
480
482
483
484
486
486
486
488
491
495
497
499
499
500
503
507
509
509
511
514
515
518
520
522
524
526
529
531
535
539
543
546
548
551
554
554
555
555
553
551
544
538
529
523
517
512
507
504
500
496
495
494
493
493
493
492
492
492
492
494
495
497
498
499
500
501
500
500
501
501
500
499
498
498
497
498
499
500
499
499
501
502
503
503
502
502
500
501
503
504
503
502
501
500
500
503
503
502
500
500
500
500
500
499
500
501
500
500
502
506
509
509
509
513
521
528
532
531
531
529
523
516
508
504
501
500
500
499
498
495
494
494
494
495
495
489
471
453
447
466
532
661
794
811
698
570
500
481
484
489
489
486
485
485
486
485
484
484
486
487
488
488
487
489
491
494
495
494
496
497
500
501
503
505
507
509
510
512
515
519
521
523
527
530
532
534
536
537
537
537
536
534
529
522
516
508
501
494
489
486
484
482
480
481
482
483
482
481
483
484
485
485
485
485
487
489
489
488
488
489
490
489
489
489
489
490
490
491
492
492
493
494
493
492
492
491
492
493
493
491
490
490
491
492
492
492
494
494
495
495
494
494
496
497
497
497
496
496
498
498
498
498
498
498
498
497
498
498
499
500
499
499
500
499
498
499
501
502
503
502
502
501
500
501
501
501
502
502
502
503
504
506
506
506
507
508
508
508
508
508
510
509
510
509
509
510
511
511
512
515
518
520
524
531
539
542
542
542
538
533
528
521
517
515
514
513
511
509
507
506
507
508
507
505
493
471
452
455
493
588
741
849
807
658
540
495
493
497
497
494
491
491
491
492
492
492
492
493
494
495
497
498
500
500
500
500
501
502
504
506
507
509
510
512
515
519
520
522
523
525
528
530
532
535
538
538
540
541
542
542
543
542
539
533
528
523
517
511
507
503
501
499
498
497
496
496
496
496
496
496
497
497
497
498
497
498
498
499
500
502
501
501
501
501
504
504
503
502
502
503
505
506
505
505
506
506
505
507
506
506
505
505
503
503
503
503
502
502
503
504
504
504
504
502
503
503
503
504
504
505
506
505
505
506
507
507
507
508
510
510
510
511
512
512
513
512
511
510
509
510
511
512
511
511
512
512
512
510
510
511
512
513
512
512
512
514
513
513
513
514
514
512
511
510
511
511
511
511
511
510
511
512
512
515
516
519
521
528
535
538
539
538
533
527
521
516
513
510
507
507
507
506
505
504
503
502
501
497
479
457
447
461
521
642
782
823
724
596
519
492
489
493
494
492
490
489
491
492
492
492
494
495
495
494
494
495
497
500
499
498
499
499
501
503
506
506
508
510
510
510
510
512
517
520
522
525
525
525
526
529
531
535
536
535
534
531
525
519
513
507
502
499
498
493
487
484
486
487
488
488
487
485
485
486
488
489
488
487
489
490
491
490
491
490
488
487
490
491
491
493
493
494
494
495
496
496
496
498
499
499
498
497
496
496
499
502
501
502
502
504
503
501
502
506
508
507
505
505
506
505
504
503
503
504
505
503
501
503
504
504
505
506
505
504
504
506
508
509
508
508
509
513
521
529
533
532
529
525
518
511
503
497
495
497
499
498
497
495
494
495
496
495
493
479
459
443
447
494
599
740
804
723
601
518
481
470
472
476
476
477
476
475
473
474
479
482
482
482
483
485
486
487
491
492
492
493
492
494
497
498
499
501
502
502
504
508
508
510
512
516
519
522
528
532
530
528
531
532
533
532
528
520
511
503
495
491
485
481
481
481
480
477
478
481
481
484
490
487
482
480
482
486
491
490
488
488
490
491
489
488
489
491
490
489
489
491
490
491
497
499
496
492
495
496
499
498
496
494
494
496
499
501
500
497
499
501
501
501
503
507
510
514
517
521
529
532
531
534
537
529
520
513
508
505
504
503
503
502
503
501
498
498
500
503
503
494
474
459
459
490
573
712
816
787
667
561
509
490
491
498
501
500
500
499
501
501
501
503
504
504
506
507
508
511
514
515
515
515
516
516
516
517
520
522
524
525
527
529
530
531
535
539
542
546
549
550
550
549
550
554
553
550
544
536
528
519
514
509
505
503
501
498
496
496
497
498
499
501
500
500
501
503
504
504
503
504
505
506
505
504
504
504
504
503
502
502
504
505
504
503
503
506
508
508
507
507
507
508
509
507
506
505
507
508
506
505
506
507
508
508
509
509
508
507
506
507
508
509
512
515
515
517
522
531
538
539
535
535
530
524
517
511
507
505
504
503
502
501
500
499
500
499
499
497
487
467
450
452
486
572
718
830
795
663
546
493
483
486
490
491
490
489
489
490
491
491
491
492
495
496
497
498
498
498
498
499
499
500
502
503
503
504
505
506
506
509
511
512
514
517
520
525
527
529
531
534
536
538
539
538
535
531
526
520
512
505
501
495
491
487
484
484
483
483
483
484
485
486
486
484
485
488
489
490
490
490
491
490
490
490
490
491
491
492
493
493
493
492
492
493
493
493
494
494
495
494
494
493
492
492
492
493
494
494
493
493
494
495
495
495
497
496
495
495
496
496
495
496
497
497
495
494
493
493
493
494
493
493
491
493
494
495
495
495
495
495
496
497
499
499
497
497
498
499
500
500
501
502
505
507
507
509
513
522
529
531
530
530
527
522
515
508
505
502
501
501
500
499
499
498
499
500
499
497
487
465
447
444
476
562
714
836
815
677
547
491
484
490
492
489
488
485
484
485
486
487
489
491
494
495
495
495
496
498
499
498
497
498
500
500
500
504
506
508
510
511
513
515
518
522
524
525
529
532
534
535
536
539
541
543
543
542
540
534
527
521
516
515
512
505
501
500
500
499
498
497
498
498
498
499
499
499
498
498
500
502
503
503
503
503
502
501
501
500
501
501
502
503
505
507
508
507
506
505
504
503
502
502
501
500
498
496
495
495
494
494
495
495
496
497
496
497
499
499
500
499
501
502
503
502
501
500
500
501
502
503
503
503
501
500
502
504
503
504
503
504
506
508
507
504
502
503
504
504
505
505
505
506
507
508
507
509
511
512
511
509
509
510
512
513
516
515
517
520
523
531
539
539
540
540
534
526
520
516
511
507
507
507
508
509
508
506
505
506
507
504
488
467
451
461
518
638
782
838
745
616
533
501
495
499
503
504
503
499
496
497
497
497
498
501
504
503
502
502
505
507
508
508
509
510
510
511
512
513
515
518
520
522
523
524
524
526
527
531
532
535
536
539
541
543
542
542
542
541
537
531
526
521
517
512
507
505
504
503
505
506
505
503
504
504
504
505
507
508
509
510
511
512
512
509
509
510
509
507
506
506
508
509
509
508
509
510
509
509
509
509
508
509
511
511
510
510
509
507
508
509
508
507
506
505
506
507
508
507
507
507
506
505
504
503
504
505
505
504
504
506
508
509
511
513
516
524
529
531
531
531
527
520
511
503
501
501
501
499
496
492
490
491
492
492
492
493
485
464
447
445
474
556
698
816
798
672
553
496
481
484
487
488
486
485
485
485
486
485
487
488
491
492
494
496
497
498
499
500
501
503
502
503
503
504
506
507
508
511
513
514
516
516
518
521
522
526
530
533
532
534
535
536
535
532
527
520
513
507
500
496
493
490
487
485
485
485
485
486
486
487
488
490
491
492
493
494
493
493
492
492
495
497
494
494
495
495
496
496
496
497
498
500
502
501
499
502
503
503
503
502
502
502
504
505
504
504
504
505
504
505
505
505
505
504
503
504
503
505
505
506
505
506
507
507
508
510
510
510
510
514
515
514
517
526
532
533
532
532
529
522
515
506
500
496
494
494
491
488
489
489
489
488
488
486
481
463
443
433
452
524
664
812
827
701
559
488
474
479
481
481
475
472
471
471
471
469
469
469
470
471
472
472
474
474
475
478
479
480
482
485
487
489
491
494
496
499
502
504
507
509
511
513
516
518
520
521
521
522
524
526
527
524
519
513
508
503
499
494
491
489
487
488
488
487
486
486
486
486
487
487
488
489
491
494
496
496
495
496
497
498
496
497
498
499
502
502
501
501
501
500
498
496
497
498
500
501
503
504
503
502
501
499
498
499
499
500
502
502
502
500
496
494
492
491
493
494
493
490
487
488
490
490
492
493
491
490
490
489
492
493
491
491
498
509
514
512
509
503
496
488
478
471
464
459
455
452
454
457
460
465
469
476
481
483
475
457
440
443
484
584
744
854
808
661
544
500
497
498
497
497
499
498
497
496
498
502
503
505
506
508
509
510
509
509
512
518
522
524
528
533
536
537
534
533
531
527
523
518
516
515
517
520
524
530
536
543
549
553
558
561
562
562
560
556
551
546
543
540
537
536
535
536
537
539
538
537
536
539
540
536
535
534
533
532
531
531
531
531
532
535
537
538
537
537
537
537
537
538
535
534
532
530
529
531
534
534
534
534
533
532
530
531
532
534
535
535
538
540
540
541
543
545
546
545
544
543
543
542
540
536
534
532
529
528
528
528
529
530
532
538
545
550
552
554
554
550
543
535
531
528
528
530
529
529
530
528
527
527
527
526
523
507
482
465
473
528
643
789
845
753
616
532
500
498
502
502
500
499
499
499
501
502
502
501
499
500
502
504
507
507
505
504
504
504
506
507
508
509
510
511
512
512
513
515
518
520
522
524
526
528
531
533
534
535
536
534
532
530
525
519
511
503
499
494
488
485
484
481
479
479
480
481
483
483
482
483
484
486
487
487
489
490
489
488
489
490
489
488
489
490
489
489
488
487
488
490
491
491
490
491
492
493
492
491
490
490
490
490
489
490
489
488
488
488
487
487
486
486
487
489
492
494
495
496
500
507
514
518
519
519
515
508
499
493
487
484
483
483
481
480
480
480
480
480
479
480
472
450
430
424
450
528
661
775
757
641
536
484
466
467
472
473
473
474
475
475
477
478
477
478
479
481
482
483
485
486
487
488
489
489
493
495
496
498
499
500
501
502
503
505
507
511
513
515
519
522
525
527
527
526
527
526
524
519
514
508
502
496
492
489
486
484
483
482
481
479
479
480
480
480
481
483
484
485
484
484
486
487
487
487
488
488
488
487
488
489
488
487
488
490
492
493
493
491
491
493
493
493
493
491
493
495
496
495
494
494
495
495
496
497
497
498
498
499
503
505
507
509
515
524
527
528
530
530
525
517
509
503
501
499
499
498
498
498
497
495
496
496
494
493
481
459
440
439
474
567
719
830
788
648
534
487
482
488
490
488
486
485
485
484
485
486
486
489
489
489
491
493
493
493
495
497
498
499
501
502
502
505
506
507
508
510
512
515
517
520
522
524
525
527
528
528
528
529
529
529
527
524
519
515
510
506
503
499
498
497
495
494
495
494
493
494
495
496
496
496
499
500
501
499
500
501
501
502
503
502
502
502
503
504
504
504
504
504
503
503
503
506
506
508
507
507
507
507
508
509
508
509
509
509
510
510
510
508
508
509
507
508
510
514
514
515
517
522
529
531
531
531
528
521
514
507
503
500
498
496
494
494
493
493
493
492
492
492
488
470
449
439
452
510
629
770
812
713
584
508
483
482
486
487
485
485
485
485
486
488
488
489
492
495
497
497
496
496
497
499
501
500
502
507
511
513
512
510
510
512
514
515
517
519
522
524
526
528
529
530
533
533
532
531
531
528
523
517
508
501
496
494
491
489
488
487
488
489
490
490
488
490
493
494
492
492
495
496
495
495
495
493
493
493
493
494
497
498
498
496
497
499
501
500
499
499
500
499
499
497
497
497
497
497
499
500
500
501
503
506
506
507
512
518
527
533
533
535
533
526
517
510
506
502
497
495
495
494
494
494
494
497
495
491
488
480
459
438
428
446
518
647
761
754
648
550
495
472
469
472
474
475
472
470
468
464
460
455
452
449
447
446
446
446
446
448
451
453
455
457
461
464
466
465
469
474
476
477
481
484
485
487
490
492
491
490
490
490
493
495
495
498
500
496
492
488
488
490
489
487
486
487
490
493
493
496
498
499
501
504
510
512
506
493
487
488
488
487
488
490
494
495
495
497
501
504
511
517
522
527
528
529
532
529
526
522
521
520
521
520
518
518
518
520
527
532
535
540
542
541
538
530
523
515
509
504
500
499
501
503
505
502
503
505
503
504
508
499
475
460
462
491
569
702
807
777
660
561
510
488
488
497
501
499
497
497
500
503
508
503
500
499
501
504
505
505
505
507
504
501
501
506
509
510
505
504
505
512
519
513
504
502
508
512
518
522
519
512
514
521
522
519
523
528
527
522
517
514
513
512
512
506
500
499
499
499
498
499
501
505
511
512
509
507
505
509
516
513
508
507
504
505
507
514
516
512
517
524
531
537
537
543
550
554
556
557
563
574
578
581
587
599
608
608
601
595
575
556
546
536
516
502
501
511
512
502
504
529
537
541
543
542
544
535
513
483
473
497
577
669
668
547
431
366
333
338
367
405
449
482
500
512
525
539
549
555
555
548
538
532
543
543
532
528
524
523
532
540
532
521
516
512
509
498
482
478
488
491
496
484
463
467
467
464
467
470
480
479
464
472
463
454
462
463
465
478
486
489
496
501
502
506
504
500
498
502
505
503
499
504
506
499
496
497
497
499
502
501
498
501
501
506
506
500
506
512
510
512
516
517
515
512
510
510
508
502
496
495
497
493
490
490
492
498
500
502
504
507
497
486
481
477
474
476
477
476
478
481
481
482
487
488
490
492
491
485
472
459
453
473
543
672
780
752
632
534
486
472
474
480
480
476
474
474
475
478
479
480
482
482
479
476
477
478
475
470
468
466
464
463
465
467
469
471
470
469
470
470
471
474
476
480
486
492
494
497
504
508
511
512
513
512
510
504
499
497
497
495
493
492
491
488
489
490
490
492
493
493
492
495
499
500
500
499
502
506
511
512
512
515
519
521
522
523
522
523
524
525
527
529
531
531
533
537
539
536
535
537
538
539
539
537
537
539
540
541
541
540
538
536
534
535
535
536
536
534
531
531
532
530
528
528
528
530
528
527
526
528
529
527
523
525
527
528
528
526
525
522
523
523
522
522
521
522
521
519
517
518
522
524
522
522
523
523
520
521
524
522
519
516
516
517
517
518
521
522
521
517
516
517
518
520
521
522
524
528
531
534
538
541
546
548
550
552
555
557
556
552
549
544
536
530
525
516
506
497
489
480
474
471
471
470
470
469
472
479
484
483
483
485
487
485
484
485
486
486
484
483
482
480
478
476
474
470
455
436
425
434
486
607
769
840
754
602
504
475
476
483
486
482
477
477
479
479
474
472
472
470
467
466
466
466
467
468
470
471
472
475
480
485
490
495
500
503
506
508
508
509
508
504
500
498
498
496
493
492
492
493
496
498
497
499
500
500
498
496
496
497
497
499
501
502
503
506
508
509
510
507
505
505
504
501
500
498
495
494
492